##TITLE=SG-X4196
##JCAMP-DX=5.0
##DATA TYPE=LINK
##BLOCKS=1


$$ === CHEMSPECTRA SPECTRUM ORIG ===
##TITLE=SG-X4196
##JCAMP-DX=5.00
##DATA TYPE=INFRARED SPECTRUM
##DATA CLASS=XYDATA
##$CSCATEGORY=SPECTRUM
##ORIGIN=Operator
##OWNER=
##XUNITS=1/CM
##YUNITS=TRANSMITTANCE
##XFACTOR=1.0
##YFACTOR=9.6294151e-10
##FIRSTX=3996.7798
##LASTX=399.67798
##MAXX=3996.7798
##MAXY=1.0339505723897728
##MINX=399.67798
##MINY=0.852252725765965
##NPOINTS=1747
##XYDATA= (X++(Y..Y))
1747I56665309I56954561I57178510I57370581I57539440I57427527I57232733I57240346
1739I57541297I57639344I57091419I56700034I56973997I57459281I57604805I57402644
1731I57225738I57176158I57352445I57615575I57682797I57634207I57519942I57281076
1723I57259782I57684530I57769022I57201226I56929306I57091047I57170649I57023640
1715I56920022I57173558I57288132I57021659I57042642I57371200I57371076I56980992
1707I56713899I56652929I56897986I57965735I59121690I58918539I57870349I57278352
1699I57281385I57855122I58644824I58708270I58304567I58234127I57462376I56855461
1691I57226791I57297355I57586978I57745314I57554296I57815569I57820892I57797681
1683I57621208I56795420I56604649I57483607I58736495I58962115I57197265I56701520
1675I57648196I58462842I58632196I58412642I58227875I57413476I56592083I57004204
1667I57505891I57497535I57472899I57822749I59129489I59725138I58363866I57539130
1659I57193056I57479336I58517127I59060410I58563551I58553028I59336416I58494472
1651I57086714I56710619I56770165I57282871I57757261I58052145I58111939I57788148
1643I57871711I58179347I57788148I57501125I57995199I58718792I58844632I58404162
1635I58225090I58454176I58736681I58474912I58136575I58744913I59689856I59346629
1627I57998913I58213081I58163872I56469029I56494222I58045027I58793009I57864840
1619I56690997I56541141I57528236I58684191I58824329I58398034I58119986I57924634
1611I57814641I58004112I58027138I57479708I57314253I57851656I58484630I58479616
1603I58358233I58768559I59147625I59417750I59796755I59494009I58308405I57963321
1595I58441054I58925719I59400542I59594904I58435730I58070591I58941751I58291816
1587I57628140I58077895I58394135I58486116I58653985I58536563I58550366I59587105
1579I60393209I59358699I58112373I58156692I58673421I58853483I59169475I59893193
1571I60068923I60081736I60041502I58851255I58509575I59234716I59604189I59117604
1563I58654480I59315246I59748350I59338830I58925533I58371046I57966416I58130447
1555I58599823I59293891I59719010I59465660I59280397I59749650I59917024I58874776
1547I57992661I58160530I58762988I59134998I59176284I59018072I58770230I58774749
1539I58747637I58798703I59526258I60014761I59868309I59505460I59006868I58549809
1531I58390483I58593076I58636096I58255977I58252139I58872053I59554051I59794155
1523I59693941I59751816I60062795I60262108I60075855I59877099I59953791I59913929
1515I59495433I59322674I59687752I59857353I59677600I59797931I60332301I60710439
1507I60791588I60738045I60359350I59835379I59891645I60747764I61399369I61147752
1499I60866423I61043019I61063632I60930921I60970908I60931231I60837083I61009161
1491I61197332I61119402I61119464I61205008I61032744I60891059I61142924I61580237
1483I61963141I62333727I62307668I61738573I61390765I61344898I61260778I61284238
1475I61480642I61782830I62089228I62240941I62202255I62293431I62512552I62365852
1467I61904894I61785244I62206773I62526603I62394573I62196560I62218039I62169758
1459I61937577I61981029I62263472I62530255I62712113I62534402I62161402I62116587
1451I62392159I62515275I62349140I62208816I62287613I62659313I63166819I63387921
1443I63339826I63529854I63854759I63844608I63623940I63410885I63429455I63683919
1435I63800908I63690233I63530040I63429826I63316552I63193621I63226737I63427164
1427I63406057I63189226I63372384I63839718I64127051I64160909I63926004I63500390
1419I63210334I63204268I63424503I63849250I64215009I64307918I64174403I63894869
1411I63684167I63759683I64203805I64674605I64678319I64495099I64586895I64764234
1403I64805458I64664206I64333978I64089417I64180098I64469411I64558917I64417293
1395I64408256I64588318I64826628I65012695I65016285I64936560I65045687I65184339
1387I65062275I64990659I65101395I65080474I65080226I65190839I65071251I64864757
1379I64986326I65390028I65532147I65423453I65654644I65879150I65786178I66014832
1371I66575384I66742634I66376690I65990134I65875250I65929288I66135224I66286628
1363I66012356I65488075I65218136I65498907I66067507I66277838I65982459I65789645
1355I65951076I66092143I66176510I66301360I66371738I66173044I65896482I65976145
1347I66056242I65924831I65878593I65967665I65990072I65894872I66074626I66417605
1339I66411168I66261992I66362763I66472695I66375762I66332866I66314297I66290713
1331I66406154I66528280I66664209I66748453I66579098I66361711I66448121I66695715
1323I66697263I66611162I66679436I66877573I67254783I67509619I67298607I66907594
1315I66879925I67150917I67210525I67051694I66955627I66867112I66736940I66783921
1307I66812394I66490831I66094124I65875622I65901557I66172054I66351126I66406402
1299I66474861I66309407I66071840I66102232I66303898I66410425I66236057I66050671
1291I66070107I66031854I65881131I65886206I66017803I66128663I66362144I66665385
1283I66597668I66051414I65575662I65555483I65630751I65279477I64555698I63788961
1275I62956117I61873202I60577481I59116552I57262320I55015281I53260210I52831625
1267I53147926I53226723I53029638I53085409I53555714I54208062I55301747I57078234
1259I58972452I60289715I60799634I60612577I59888488I58869020I57571751I55827080
1251I53818473I51478214I48299292I44378764I40360437I36487509I32926797I29997264
1243I27569295I25308452I22967822I20599833I18722760I17872956I18080316I18935072
1235I20281736I22180782I24181776I25553385I26171070I26456979I26841121I27203723
1227I27085868I26850901I27349432I28972968I31497313I34185751I36419482I38182290
1219I39665688I40719758I40988583I40191578I38220358I35273370I31685794I27378029
1211I21468331I13028654I02773123H93195072H86823982H85051394H87627363H92630681
1203H98207613I04083701I10428298I16596113I21826661I26011186I29436588I32249194
1195I34389273I35948930I37135710I38040419I38797190I39594876I40280712I40529605
1187I40244687I39462104I38390207I37530251I37382933I37892977I38567113I39205720
1179I40015662I41119251I42396403I43608809I44569969I45358123I46091434I46703982
1171I47006480I46759195I45977231I44854207I43478451I42039124I40933369I40515988
1163I40904339I42136986I43981314I45867300I47510148I48819302I49832642I50749792
1155I51466948I51961022I52426747I52854961I53245107I53604552I53874924I54098007
1147I54264761I54395305I54715939I55190515I55477043I55574657I55750882I56092810
1139I56468781I56781802I57054094I57217134I57272657I57405244I57616504I57740796
1131I57748409I57677412I57666208I57917021I58265138I58339540I58139360I57957255
1123I57984552I58148583I58281232I58316328I58355819I58539163I58817954I59119523
1115I59418245I59595028I59546994I59430254I59498466I59703907I59815139I59827890
1107I59857787I59782580I59604250I59598432I59740613I59708054I59523659I59413232
1099I59314318I59214166I59322365I59627586I59748350I59681438I59821143I60015009
1091I60056110I60252018I60458326I60270155I60074865I60273930I60587384I60736065
1083I60877627I61062332I61056204I60994677I60988425I60801553I60488594I60374639
1075I60704249I61292223I61600849I61605367I61661138I61876730I62191237I62396492
1067I62373590I62242117I62166168I62255364I62390798I62243541I61917150I62085576
1059I62700971I62853056I62395564I62091147I62269167I62555386I62718117I62669093
1051I62373899I62160907I62136395I62259573I62528831I62734582I62923001I63100278
1043I63018696I62945718I63055711I63062025I63123676I63455081I64051287I64460436
1035I64095978I63478664I63252858I63190526I63053854I63045127I63095265I62897499
1027I62788124I63158463I63524345I63427969I63237693I63300149I63494324I63610384
1019I63453224I63232865I63354743I63510727I63491786I63527749I63487949I63266043
1011I63059363I63074343I63197026I63381421I63685467I63599490I63078552I62871068
1003I63170100I63560122I63822572I64103406I64124389I63792613I63703355I63751451
995I63680639I63668630I63694999I63672530I63599923I63334936I62858069I62674726
987I62961502I63377088I63528492I63358952I63309062I63380307I63267342I63087465
979I62954693I62721893I62299621I61849371I61720994I61978801I62202502I62309463
971I62442545I62509086I62596486I62560090I62374642I62463343I62742072I62941199
963I63045374I62990285I63066544I63611374I63992360I63940365I64278083I64946092
955I65090934I64481667I63552633I62995979I63058249I63206929I62936619I62822292
947I63423574I63973419I63811245I63634958I63662998I63642447I63545205I63079419
939I62652690I62933648I63474022I63649566I63766801I63938756I63697970I63243264
931I63105354I63372756I63862435I64138812I63964443I63671602I63775158I64317822
923I64709701I64664206I64437162I64205476I64127670I64225779I64374521I64665135
915I64969675I64770424I64362265I64340724I64206590I64006287I64473744I65270750
907I65659844I65475448I65043025I65114332I65788716I65990939I65396961I65000191
899I65492594I66085086I65847520I65169298I64795369I64677452I64429054I64382877
891I64302285I63675315I63245740I63789333I64869028I65626542I66553472I67784077
883I67944456I67158592I67044699I67278737I66177810I64829351I65336857I66116221
875I65834893I66063298I66731678I67240298I67779620I67484178I65994653I64240325
867I63375541I63591443I63711588I63210086I63345149I65020432I66871074I67236646
859I66963302I66756376I66650034I66691011I66016689I66669408I68641247I69770895
851I70326187I70245471I69091373I66978777I65256018I65562230I67165277I67856188
843I67146336I66812146I67869868I68841798I68496281I67526517I66674298I66053147
835I65830931I66433575I67570341I67791566I66803852I66082115I65868503I65625552
827I65995024I67101027I68056121I68243549I67744709I67224019I67306592I67576902
819I67451805I67209163I66867112I66814251I67720631I68811840I69199262I68906420
811I68148659I67232128I66632517I66610295I66327295I65593984I66095238I67993913
803I69623081I70043991I69087350I68369018I68907349I68422869I66458953I65156794
795I65173198I66205169I67493401I68944798I69965256I69063890I67968163I67567680
787I67009541I67432493I68773524I69681080I69567992I69309318I69956591I70766471
779I70530885I69181993I68026533I67902860I67790514I66873735I66233148I66645330
771I67847213I68687176I68208453I67545767I66354840I64401447I64730128I67035229
763I68917253I70106199I70501298I71049099I71741496I70293380I68103782I67803265
755I68259952I68488977I68531563I68109910I67666779I67696181I68447567I69537166
747I69937773I69741060I69882436I69952072I69157419I68000598I67248283
740I67346392I68171376I68813758I68884261I68917748I68887851I68477897
733I68162648I68201087I68253639I68482478I68874419I69031889I68814625
726I68374588I68148659I68157882I68203130I68277841I68453138I68670711
719I68591171I68242807I68133989I68372608I68535029I68369822I68198240
712I68488667I68963615I69063333I68861730I68961758I69537909I69982093
705I69846906I69441595I69227859I69013381I68824962I68977480I69233616
698I69364841I69576286I69723048I69400990I69272303I69487152I69574120
691I69545275I69344291I69059248I68825333I68560532I68352057I68408261
684I68503523I68609060I68752231I68585291I68263976I68238226I68361652
677I68001526I67582473I67973053I68552609I68845636I68916572I68740842
670I68668235I68882342I68876214I68117214I67348868I67154816I67307706
663I67592563I67695809I67695686I67433917I67210835I67727501I68306129
656I68398481I68637905I69017900I69263265I69386939I69499346I69803144
649I69588233I68946036I69353204I70063985I70535527I70877702I71188928
642I71480284I71470133I71505725I71778883I71856565I71931834I72201031
635I72499567I73014068I73600370I73550480I73573506I73922861I74562025
628I75525166I76362344I77141893I77403600I76743019I76879258I77806498
621I78640456I78855801I78968519I79251147I79125431I79195129I79657697
614I79769114I79628295I79879665I80528423I80724022I79801115I80001543
607I80617000I80482680I80704710I81532355I82313576I82735105I82346754
600I81880286I82164772I82537772I82841199I83170623I83259323I83371545
593I83614621I83369193I83054687I83330011I83441924I83252391I83190925
586I83174089I83067005I83001949I83034755I83115781I83037170I82754665
579I82549595I82480764I82543591I82728605I82860821I83079013I83430101
572I83341091I83286063I83685990I83699174I83506546I83640494I83933460
565I84390209I84118227I82965862I82789885I82537030I81300545I79067432
558I77555871I78150406I80222211I82215529I83578472I85071155I86323052
551I86759932I86920249I87378669I87836594I88135812I88196720I87809421
544I87642419I87686738I87547219I87422679I87498876I87356262I86487207
537I86416395I87115043I87459075I86952065I85941076I84905886I82916034
530I77980618I70356517I62702518I56011908I48936475I40300581I31266989
523I25543481I27836016I37190862I46901810I54919338I61130358I65019318
516I67480031I68701598I67031700I63394977I59899197I58483207I61475504
509I66874602I70894105I72727416I72515289I69290377I61969083I54482211
502I48163301I40202534I31291686I25628715I26292453I31438509I36744140
495I40712577I43955874I46959932I49898564I53064116I56460735I59923771
488I63236393I66100190I68369760I70187101I71754990I72971234I73836451
481I74313441I74695169I75672051I77051707I77993555I78138645I77832557
474I77734448I78606660I80276929I81897927I83106867I83884436I84369721
467I85095233I86135809I87105635I87650094I87738609I87147911I84337967
460I76069130I59206553I35389801I16361889I15060721I27117684I41380896
453I52819307I60619943I65507016I68480373I69520268I67752447I63457557
446I59194482I57492149I59418617I64093192I68917872I72195645I74213475
439I76103422I78107944I79626376I80566614I81088666I81184609I81022373
432I80975454I81220077I81556062I81812631I82071986I82394849I82701556
425I82829314I82519203I81794247I80865832I79879850I79291195I79555935
418I80572247I81804523I82648756I82731700I82221409I81472561I80480885
411I79320412I78194044I76552001I73473045I69143677I64460003I59970566
404I57036638I57968335I62978276I69011338I72494182I71679474I66894657
397I60139858I54163000I51233901I52623089I58251458I65806853I71802652
390I74357141I73781547I71637011I69792683I69229655I69371588I67859902
383I61677417I50517921I38529850I31618510I33005903I41172360I51742149
376I60681780I66113931I67883671I66984657I65898462I67323057I71671860
369I76899747I81046513I83745227I85408935I86512771I87501600I88424259
362I89141415I89911185I90831801I91591110I92221237I92763344I93069680
355I93443547I94090387I94650135I94943286I95102427I95180914I95289732
348I95548406I95968325I96468465I97000421I97857035I99174359A000616408
341A001995260A002472188I99902161I93928398I88177036I86402034I88747988
334I93175960I97517088A000377047A001456062A001287698A001477479A003569463
327A007458732A011836628A015385022A017672605A019051827A019881267A020353367
320A020679387A020958611A021183241A021545347A022139573A022742155A023273801
313A023989967A025084951A026295872A027398161A028405435A028820898A027561882
306A022906433A012909081I97951244I83709078I78508860I83802916I92461280
299I98543427A001484968A001951559I97798417I84567115I65071622I53136413
292I54344920I55566673I47290780I37706291I37271949I47385484I63107211
285I77385588I86424627I90854147I92921247I94768794I96924224I98737912
278A000104631A001355972A002347276A002791027A002973689A003461512A004212031
271A004905170A005318157A005345950A005418681A005836372A006332055A006710069
264A007029837A007271489A007234473A006926590A006829286A007191330A007659592
257A007964442A008264465A008490270A008312436A007725886A006378974A003036145
250I95700676I83701526I71084691I64537314I66856466I75371163I85511377
243I93954210I99849733A003573300A005625236A006571045A006679677A006239826
236A005811365A005600538A004983163A003150719I99493446I93076922I82161120
229I64814248I41922012I20406895I10020944I14243660I27057766I39947883
222I48843442I53473203I54977337I55212861I55843297I58228927I62768564
215I68604913I74758801I80409887I84528305I86711465I87297087I84243076
208I72020101I46911094I14952708H92134441H90886753I07666572I29083519
201I45903758I56571162I62190494I62917925I57451977I44112972I25608784
194I10561380I06736733I14958340I29667222I44127642I54210909I59376650
187I61949276I63993226I66085210I68667616I71114526I70243676I61652905
180I43008579I18873050I02568611I05724940I24407272I45134483I60418649
173I70341785I76772421I80836677I83572715I86365762I89021579I90347941
166I90748610I91360105I92766749I94716242I96472365I98417711A001095255
159A003878707A006189565A007743403A008212717A008112627A008472134A009201732
152A009630565A009716108A009331347A008350318A006453500A001987956I93527605
145I83080808I74797797I70046282I68256115I69971199I75352098I82705394
138I89751734I95409258I99984425A003859209A007238868A010226524A012811715
131A015495139A018216259A020129109A021064581A022062447A023150561A023785207
124A025255234A027254804A028216273A028809694A030097369A031727776A033212102
117A034067478A034076267A034059307A034713698A035508475A036151229A037198119
110A038147827A038406749A038929977A040265004A041488490A042221121A043040286
103A044181323A045721357A047285533A047949580A047298283A045969942A045510902
96A046224716A046995724A047458106A047647762A047690472A046981116A043546862
89A034987661A022247090A013206875A014922763A024129796A032615277A035198549
82A030585253A019995532A006031971I93513926I87282912I88415964I94670995
75A004296275A015786186A025751413A033178677A038749852A041902962A044170181
68A046843083A048627617A049506079A051246419A054395196A056709581A056450474
61A055735794A056796982A059103568A061006328A061891601A061281900A059048231
54A056618219A053952250A049531087A044189864A041510278A043181786A046853110
47A049551637A049606356A045809624A035372855A013180320I78609136I41119932
40I13348175I05793833I19802208I45506741I72976371I94794853A010493120
33A022316912A029555448A033418410A037794449A043811293A048735196A051274521
26A051569653A052490206A055778999A057362611A055095640A050107610A039870092
19A022068885A002177860I89024674I87035071I95916021A011842756A029610785
12A044969415A056840681A062838648A063781857A064327679A064423126A063773563
5A064477596A065966751A066708914A068579116A073741823
$$ === CHEMSPECTRA INTEGRALS AND MULTIPLETS ===
##$OBSERVEDINTEGRALS= (X Y Z)
##$OBSERVEDMULTIPLETS=
##$OBSERVEDMULTIPLETSPEAKS=
$$ === CHEMSPECTRA SIMULATION ===
##$CSSIMULATIONPEAKS=
##END=


$$ === CHEMSPECTRA PEAK TABLE EDIT ===
##TITLE=SG-X4196
##JCAMP-DX=5.00
##DATA TYPE=INFRAREDPEAKTABLE
##DATA CLASS=PEAKTABLE
##$CSCATEGORY=EDIT_PEAK
##$CSTHRESHOLD=0.93
##MAXX=3996.7798
##MAXY=1.0339505723897728
##MINX=399.67798
##MINY=0.852252725765965
##$CSSOLVENTNAME=
##$CSSOLVENTVALUE=0
##$CSSOLVENTX=0
##NPOINTS=0
##PEAKTABLE= (XY..XY)
##END=


$$ === CHEMSPECTRA PEAK TABLE AUTO ===
##TITLE=SG-X4196
##JCAMP-DX=5.00
##DATA TYPE=INFRAREDPEAKTABLE
##DATA CLASS=PEAKTABLE
##$CSCATEGORY=AUTO_PEAK
##$CSTHRESHOLD=0.93
##MAXX=3996.7798
##MAXY=1.0339505723897728
##MINX=399.67798
##MINY=0.852252725765965
##NPOINTS=100
##PEAKTABLE= (XY..XY)
2466.054340515464, 0.9271885201552328
2350.6833772164946, 0.927141551720141
2513.438843298969, 0.9271086499346274
2433.09120814433, 0.9269994542932763
2332.141615257732, 0.926978234914162
2389.8270969072164, 0.9267104909531895
3380.781263814433, 0.9265508102143523
3428.1657665979383, 0.9265444923551052
3409.624004639175, 0.9265390084032057
2591.7262826804126, 0.9265097426848338
2558.7631503092784, 0.9264810730272566
3389.0220469072165, 0.9264619990818265
2573.1845207216493, 0.9264375018498121
3403.4434173195878, 0.9262896229221214
2583.485499587629, 0.9262699529158966
3417.8647877319586, 0.9261429351530786
2406.3086630927837, 0.926081066161061
3440.5269412371135, 0.9256379050710949
3467.3094862886596, 0.9255017682521771
3479.670660927835, 0.9253202720734308
3459.068703195876, 0.9252818872989592
3485.8512482474225, 0.9252581642719189
3473.4900736082473, 0.9252299115680154
2614.388436185567, 0.924784605044365
2637.0505896907216, 0.9244959402161462
3524.9949679381443, 0.9243055031254795
3496.1522271134018, 0.9242653292056824
3535.2959468041236, 0.924129132684391
2651.471960103093, 0.9241170930266914
3510.573597525773, 0.9241133972571761
2672.0739178350514, 0.9240371631037124
2688.5554840206187, 0.9238752175264436
3516.7541848453607, 0.9237716242787978
3592.9814284536083, 0.9237309140005796
2659.712743195876, 0.9236671374214308
3572.3794707216493, 0.9232396530192474
3568.2590791752577, 0.923217897281712
3617.703777731959, 0.9231281925394649
3805.1815930927833, 0.9230305001973924
3656.84749742268, 0.9230146453654302
3625.944560824742, 0.9229886574999583
1450.377824329897, 0.9229632666582227
3551.7775129896904, 0.9228739788696494
3700.1116086597935, 0.9228429240059519
3543.536729896907, 0.92274076168939
3766.0378734020615, 0.922714715084486
3757.7970903092782, 0.9226294803167283
3646.546518556701, 0.9226061752063033
3673.3290636082475, 0.9225659415841325
3749.5563072164946, 0.9224969198625788
3584.7406453608246, 0.9224908995522582
3605.3426030927835, 0.9224656271523283
3685.6902382474227, 0.9224626468483548
2713.277833298969, 0.9224568056451551
3716.5931748453604, 0.922319476704648
3784.579635360825, 0.9222939654952236
2723.5788121649484, 0.9221765444074942
3667.14847628866, 0.9221398871500915
3873.168053608247, 0.922068779697227
3776.338852268041, 0.9220175791341988
1314.4049032989692, 0.9220089357712051
3827.8437465979378, 0.9219903991471375
3708.352391752577, 0.9218376323283421
3899.9505986597937, 0.9218030617651916
3947.3351014432988, 0.9217851799413509
3984.4186253608245, 0.9217591333364469
3815.4825719587625, 0.9217209267061547
3961.75647185567, 0.9217046549205187
1229.9368765979384, 0.9215703053210434
3924.6729479381443, 0.9215558814201652
3939.094318350515, 0.9214669508828921
3930.853535257732, 0.9214580109339133
3883.4690324742264, 0.9213958424670862
3796.94081, 0.9212563680928948
3850.5059001030927, 0.9212476062880953
3974.1176464948453, 0.9212461753570115
3912.311773298969, 0.9212008159971828
3860.806878969072, 0.9211543251810801
3836.0845296907214, 0.9211422248580654
3731.0145452577317, 0.921093170691663
3743.375719896907, 0.9210237310534939
1001.2551457731961, 0.9178146167702037
3003.7654373195874, 0.9177117986904735
3009.9460246391754, 0.9175211237532538
1211.3951146391755, 0.9159826089921306
2795.685664226804, 0.905661885663862
2834.829383917526, 0.9026449369512489
990.9541669072169, 0.9025380658507031
1180.4921780412374, 0.8970941347633502
2923.4178021649486, 0.8925032061538006
1425.6554750515465, 0.8913263125214598
1475.1001736082476, 0.8912442371647964
2948.140151443299, 0.8838579702388036
1337.0670568041237, 0.8811499524214288
863.2220289690722, 0.8762969419469855
795.2355684536087, 0.8731344388474869
477.96541938144355, 0.872226481297708
764.3326318556706, 0.8691207811549427
817.8977219587632, 0.8578718351728171
2882.213886701031, 0.852252725765965
##END=

##END=

